995
1005
1003
1000
997
995
993
991
991
990
990
989
988
987
985
984
983
984
987
990
995
1000
1005
1007
1007
1005
1000
993
987
982
978
978
979
983
988
993
999
1004
1007
1010
1011
1012
1011
1009
1006
1003
999
996
994
992
991
992
992
994
996
998
1000
1003
1005
1007
1009
1010
1011
1011
1011
1011
1010
1008
1006
1005
1003
1001
999
998
996
995
995
995
996
998
999
1001
1002
1003
1003
1002
1001
999
998
997
996
996
998
999
1001
1002
1003
1002
1001
999
997
996
995
996
999
1004
1011
1021
1035
1051
1070
1090
1111
1131
1149
1164
1175
1182
1182
1176
1164
1145
1121
1093
1064
1037
1013
995
982
975
972
973
974
976
978
979
981
982
985
987
991
995
999
1003
1006
1008
1009
1009
1008
1007
1005
1003
1001
999
998
996
995
995
994
995
995
995
994
993
992
990
988
985
983
981
979
977
977
977
978
980
983
987
991
996
1000
1004
1007
1010
1011
1011
1009
1007
1002
998
992
988
984
982
982
984
987
991
994
996
997
996
995
992
989
986
983
981
979
978
977
977
978
980
982
983
985
986
986
986
985
984
982
981
979
978
977
976
976
976
976
977
978
979
980
980
981
982
982
982
983
983
984
985
986
988
989
990
992
993
995
997
999
1001
1004
1008
1011
1014
1015
1016
1016
1014
1011
1007
1003
999
995
991
987
985
984
985
986
989
991
995
997
998
998
997
994
991
987
984
982
980
979
980
982
985
989
994
1000
1004
1008
1010
1009
1007
1004
999
991
987
985
984
984
985
986
989
991
994
997
999
1001
1002
1001
1001
1000
998
997
995
995
994
994
995
996
998
1000
1003
1006
1008
1010
1012
1013
1013
1013
1012
1011
1009
1007
1006
1005
1005
1006
1008
1010
1013
1014
1015
1014
1012
1009
1005
1001
998
996
995
996
997
999
1001
1002
1004
1005
1006
1007
1008
1009
1011
1012
1013
1013
1012
1010
1006
1002
998
994
992
991
992
993
995
997
998
996
994
990
987
984
982
982
983
986
990
994
998
1001
1003
1003
1004
1003
1003
1003
1003
1004
1005
1006
1007
1008
1009
1010
1010
1010
1009
1008
1007
1007
1007
1008
1011
1015
1021
1026
1032
1035
1037
1036
1032
1026
1019
1011
1002
995
989
984
981
981
983
987
993
1000
1007
1013
1018
1020
1020
1018
1014
1010
1005
1001
997
993
991
989
989
989
991
993
995
997
999
1000
1001
1001
1000
999
997
995
993
991
991
991
992
995
999
1004
1008
1013
1016
1017
1017
1016
1014
1010
1005
1000
995
990
985
981
978
976
975
975
976
979
982
986
990
994
998
1002
1005
1008
1009
1010
1010
1010
1010
1009
1009
1008
1008
1007
1007
1007
1008
1008
1008
1009
1009
1009
1009
1009
1009
1008
1008
1007
1007
1006
1006
1004
1003
1001
999
996
993
990
987
985
984
984
987
994
1005
1020
1038
1059
1083
1106
1130
1152
1171
1185
1194
1197
1193
1182
1164
1140
1114
1085
942
969
993
1013
1029
1040
1047
1050
1048
1043
1037
969
976
982
987
991
993
995
997
998
999
1001
1003
1006
1009
1013
1018
1023
1027
1030
1032
1032
1030
1027
1024
1020
1016
1013
1011
1010
1009
1008
1008
1007
1007
1006
1006
1005
1004
1004
1003
1003
1003
1002
1002
1002
1003
1003
1004
1004
1005
1006
1007
1007
1008
1008
1008
1008
1008
1007
1006
1003
1001
997
993
990
987
985
985
986
989
992
996
999
1001
1001
999
997
993
990
987
985
984
985
986
987
989
990
992
993
994
995
997
999
1002
1004
1007
1009
1011
1012
1013
1013
1012
1011
1009
1007
1005
1003
1001
1000
999
998
998
999
999
1000
1001
1002
1003
1003
1003
1003
1003
1002
1002
1001
1000
1000
1000
1000
1000
1001
1001
1002
1003
1003
1003
1003
1002
1002
1002
1002
1002
1002
1001
1000
999
998
996
994
994
995
998
1002
1008
1013
1018
1022
1024
1022
1019
1015
1010
1004
1000
998
996
996
997
998
999
1001
1002
1003
1004
1004
1005
1005
1005
1004
1003
1002
1001
1000
999
999
999
999
1001
1004
1007
1010
1013
1015
1015
1014
1012
1010
1007
1004
1001
999
997
996
996
996
997
999
1000
1001
1003
1004
1004
1004
1005
1005
1007
1010
1013
1018
1022
1025
1027
1028
1026
1023
1019
1015
1011
1008
1007
1006
1007
1009
1011
1013
1016
1018
1020
1022
1023
1024
1025
1025
1025
1026
1026
1027
1027
1028
1029
1030
1031
1032
1033
1033
1034
1034
1034
1035
1034
1033
1032
1029
1025
1021
1015
1010
1006
1003
1002
1003
1006
1011
1016
1021
1024
1026
1026
1026
1025
1026
1027
1030
1034
1039
1044
1048
1051
1051
1050
1047
1043
1038
1032
1026
1020
1015
1010
1006
1002
999
997
996
995
995
996
997
998
999
1000
1001
1002
1003
1003
1003
1003
1003
1003
1003
1003
1003
1003
1004
1004
1004
1004
1004
1004
1004
1005
1005
1006
1006
1007
1008
1008
1009
1009
1009
1009
1008
1007
1006
1004
1003
1002
1002
1002
1004
1006
1009
1012
1014
1016
1017
1017
1016
1014
1012
1010
1008
1007
1005
1004
1003
1002
1001
1000
1000
999
999
999
998
999
999
999
1001
1003
1005
1008
1011
1014
1016
1017
1018
1018
1018
1018
1018
1019
1021
1023
1026
1028
1030
1029
1028
1025
1020
1015
1011
1006
1003
1001
1001
1002
1004
1006
1011
1016
1024
1035
1049
1067
1088
1112
1136
1159
1178
1191
1197
1196
1188
1174
1155
1132
1107
1081
1056
966
987
1003
1015
1022
1025
1025
977
981
986
990
994
997
999
1000
1000
998
996
995
995
996
999
1004
1010
1017
1023
1028
1032
1034
1035
1033
1031
1028
1025
1022
1018
1015
1012
1008
1006
1003
1001
999
998
998
997
997
998
999
1000
1001
1003
1004
1006
1007
1007
1007
1007
1006
1004
1003
1001
1001
1001
1001
1002
1004
1005
1005
1005
1004
1002
1000
999
998
998
999
1001
1003
1005
1007
1008
1009
1009
1009
1008
1006
1004
1002
999
997
994
992
990
989
988
988
988
989
990
992
995
997
1000
1002
1004
1006
1007
1007
1006
1005
1003
1001
999
996
995
994
994
995
997
999
1002
1004
1006
1006
1006
1006
1005
1004
1003
1003
1003
1003
1004
1004
1005
1005
1006
1007
1008
1009
1011
1013
1015
1017
1018
1019
1019
1019
1018
1018
1017
1017
1018
1019
1020
1021
1021
1021
1019
1017
1014
1011
1008
1007
1006
1007
1008
1011
1014
1017
1019
1022
1024
1026
1027
1028
1029
1030
1030
1029
1028
1027
1025
1024
1022
1020
1020
1020
1021
1022
1025
1028
1030
1032
1034
1035
1035
1035
1033
1030
1027
1023
1020
1017
1016
1017
1020
1023
1027
1030
1032
1031
1028
1024
1017
1011
1005
1000
996
995
995
997
999
1004
1008
1012
1017
1019
1020
1020
1017
1014
1010
1008
1007
1008
1011
1015
1020
1024
1027
1027
1025
1022
1017
1012
1008
1004
1001
1000
999
999
999
999
1000
1000
1001
1002
1004
1006
1008
1011
1014
1018
1022
1027
1031
1034
1037
1038
1038
1036
1033
1029
1025
1021
1018
1016
1016
1017
1018
1020
1023
1025
1027
1028
1028
1027
1024
1020
1015
1010
1005
1001
998
998
999
1002
1007
1012
1019
1026
1032
1039
1044
1048
1050
1051
1050
1048
1044
1039
1034
1028
1023
1017
1012
1008
1005
1003
1001
1001
1001
1002
1003
1004
1006
1007
1009
1010
1011
1012
1012
1012
1012
1011
1010
1010
1009
1008
1007
1006
1006
1005
1005
1004
1004
1003
1002
1002
1001
1000
1000
1000
1001
1002
1004
1006
1008
1011
1014
1017
1020
1022
1023
1023
1021
1018
1014
1009
1004
999
996
993
991
991
991
992
993
995
997
1000
1002
1005
1007
1009
1011
1012
1013
1013
1013
1012
1011
1010
1009
1008
1008
1009
1010
1012
1012
1012
1011
1009
1007
1004
1001
1000
999
1000
1002
1004
1007
1009
1010
1011
1010
1008
1005
1002
998
993
989
985
983
981
982
985
991
1002
1017
1036
1061
1090
1122
1152
1180
1202
1215
1221
1217
1206
1188
1165
1139
1111
1082
944
970
993
1012
1026
1036
1042
1044
1043
1039
1033
1026
1018
989
997
1003
1008
1012
1015
1017
1018
1018
1018
1018
1018
1017
1018
1018
1019
1020
1022
1024
1026
1028
1031
1033
1035
1035
1034
1031
1027
1021
1015
1009
1004
1000
997
997
997
998
999
1000
1000
1000
1001
1001
1003
1005
1009
1013
1018
1023
1026
1028
1029
1028
1025
1022
1018
1015
1012
1010
1008
1007
1006
1005
1005
1004
1004
1005
1005
1006
1006
1007
1008
1009
1010
1011
1012
1012
1013
1013
1013
1012
1012
1011
1010
1010
1009
1009
1009
1010
1011
1012
1014
1015
1017
1018
1019
1019
1019
1018
1017
1015
1013
1011
1009
1008
1008
1008
1009
1010
1010
1011
1012
1012
1011
1011
1010
1010
1009
1008
1007
1007
1006
1006
1005
1004
1004
1004
1003
1002
1002
1001
1001
1000
1000
1001
1002
1003
1004
1005
1005
1006
1005
1005
1005
1004
1005
1006
1008
1011
1014
1017
1020
1023
1025
1027
1027
1026
1024
1021
1016
1011
1007
1003
1002
1002
1005
1010
1015
1020
1025
1028
1030
1031
1031
1031
1029
1028
1027
1025
1024
1021
1019
1015
1012
1009
1006
1005
1005
1006
1009
1013
1017
1022
1026
1029
1031
1032
1032
1031
1028
1025
1021
1017
1014
1011
1010
1009
1010
1010
1011
1011
1011
1009
1006
1003
1000
997
994
993
991
991
991
991
991
992
992
993
993
994
995
995
996
996
996
997
996
996
996
996
996
997
998
999
1001
1004
1006
1008
1011
1013
1015
1017
1019
1022
1024
1026
1027
1028
1027
1024
1020
1015
1010
1004
1000
997
995
995
997
998
1000
1001
1001
1001
1001
1001
1001
1002
1004
1007
1010
1013
1016
1018
1020
1021
1021
1021
1020
1018
1017
1015
1013
1012
1012
1013
1014
1015
1016
1017
1016
1013
1010
1007
1004
1003
1004
1008
1014
1022
1031
1041
1049
1056
1061
1063
1063
1061
1057
1050
1043
1034
1026
1018
1012
1007
1004
1002
1002
1002
1003
1004
1004
1005
1005
1005
1005
1005
1005
1005
1005
1005
1006
1008
1010
1012
1015
1018
1021
1023
1025
1027
1028
1028
1026
1024
1021
1018
1014
1010
1008
1005
1004
1003
1003
1004
1004
1005
1006
1007
1007
1008
1008
1007
1007
1006
1006
1006
1005
1005
1005
1006
1006
1006
1007
1007
1008
1008
1009
1010
1012
1014
1017
1020
1022
1025
1026
1026
1025
1023
1020
1017
1014
1011
1009
1007
1005
1003
1002
1000
999
997
997
997
999
1003
1007
1012
1018
1023
1028
1031
1033
1033
1032
1030
1028
1025
1022
1018
1015
1012
1008
1005
1003
1000
999
999
999
1001
1005
1011
1021
1035
1052
1074
1099
1125
1151
1172
1188
1196
1197
1190
1176
1157
1134
1108
1082
1057
966
986
1002
1014
1020
1022
1021
1017
1012
1008
1003
1000
996
993
990
986
983
979
975
972
970
968
967
967
969
970
972
975
978
980
982
984
984
983
982
979
977
976
975
977
980
984
989
993
998
1001
1003
1004
1004
1003
1002
1001
1000
999
998
997
996
994
992
991
989
987
985
985
984
985
985
986
987
988
989
1009
1008
1008
1009
1009
1010
1010
1011
1010
1008
1005
1001
996
991
986
982
980
979
980
982
983
984
984
983
981
979
977
976
977
978
981
985
990
994
998
1001
1004
1005
1006
1007
1007
1007
1006
1006
1005
1005
1004
1003
1003
1003
1004
1005
1006
1008
1010
1012
1014
1014
1014
1014
1012
1011
1009
1009
1008
1009
1010
1012
1013
1014
1014
1014
1012
1010
1008
1006
1004
1002
1000
1000
1000
1001
1004
1008
1012
1016
1019
1021
1021
1021
1019
1016
1014
1012
1011
1010
1010
1010
1010
1009
1007
1004
1002
1000
1000
1002
1006
1011
1017
1023
1028
1031
1032
1031
1028
1024
1020
1016
1013
1011
1010
1010
1012
1014
1016
1019
1022
1024
1026
1027
1027
1025
1023
1020
1015
1011
1006
1001
998
996
997
999
1004
1010
1016
1022
1028
1031
1033
1033
1032
1030
1029
1028
1027
1027
1028
1029
1031
1032
1034
1035
1035
1033
1031
1028
1023
1018
1013
1008
1005
1002
1001
1002
1003
1006
1010
1014
1019
1023
1027
1029
1029
1028
1025
1021
1016
1011
1006
1002
999
996
995
994
995
996
998
1000
1003
1007
1011
1016
1020
1024
1027
1028
1028
1026
1023
1019
1014
1009
1005
1001
997
995
993
991
991
991
992
993
995
999
1002
1006
1010
1013
1017
1020
1022
1024
1024
1024
1022
1019
1015
1010
1006
1002
1000
1000
1003
1007
1013
1019
1024
1027
1028
1026
1022
1017
1012
1007
1003
1000
999
998
998
997
996
995
994
993
992
991
990
990
991
993
995
999
1002
1006
1010
1014
1016
1016
1015
1013
1010
1006
1004
1004
1005
1007
1011
1015
1018
1019
1019
1018
1016
1015
1016
1018
1024
1031
1039
1046
1052
1055
1054
1050
1044
1037
1031
1027
1025
1025
1027
1029
1030
1031
1030
1027
1023
1018
1014
1010
1008
1006
1006
1006
1008
1010
1012
1014
1016
1018
1018
1019
1018
1017
1015
1013
1011
1009
1008
1007
1006
1006
1006
1006
1006
1007
1007
1008
1008
1008
1008
1008
1007
1006
1005
1002
1000
997
995
994
994
997
1000
1006
1012
1018
1022
1025
1025
1024
1021
1017
1013
1010
1008
1008
1008
1009
1010
1011
1011
1011
1010
1008
1007
1005
1004
1002
1001
1000
999
997
996
994
993
992
991
991
991
992
994
997
1000
1004
1008
1013
1017
1021
1024
1026
1026
1026
1024
1021
1018
1015
1012
1009
1008
1010
1014
1022
1033
1047
1065
1086
1108
1132
1157
1180
1201
1217
1226
1228
1221
1207
1186
1160
1132
1102
1074
951
974
993
1009
1020
1028
1031
1032
1029
1024
981
987
994
1001
1008
1013
1018
1022
1025
1027
1028
1028
1028
1028
1027
1025
1024
1021
1018
1014
1010
1006
1003
1001
1001
1004
1007
1012
1018
1022
1024
1025
1022
1019
1014
1009
1006
1004
1005
1007
1011
1016
1021
1026
1030
1034
1036
1036
1035
1032
1028
1022
1017
1011
1007
1004
1002
1002
1003
1004
1004
1003
1000
997
994
991
989
989
991
994
998
1002
1006
1009
1011
1012
1012
1011
1010
1008
1007
1005
1004
1003
1003
1004
1006
1008
1010
1013
1014
1014
1014
1012
1010
1009
1008
1008
1009
1011
1014
1016
1018
1019
1019
1018
1016
1013
1011
1008
1006
1004
1002
1000
999
999
998
998
999
1000
1002
1006
1010
1014
1018
1022
1025
1027
1027
1027
1026
1026
1026
1028
1029
1032
1034
1035
1033
1030
1025
1018
1012
1006
1001
999
999
1001
1004
1006
1008
1007
1005
1002
999
997
997
999
1004
1010
1018
1025
1032
1038
1042
1044
1044
1043
1041
1037
1033
1029
1025
1021
1017
1015
1014
1013
1013
1014
1016
1017
1019
1021
1021
1021
1020
1017
1014
1010
1008
1006
1006
1007
1011
1015
1021
1026
1032
1036
1040
1042
1043
1042
1041
1038
1034
1029
1024
1019
1014
1010
1007
1004
1001
999
996
994
992
992
992
994
997
1001
1006
1012
1016
1020
1022
1024
1023
1022
1021
1021
1021
1022
1024
1025
1028
1029
1030
1030
1029
1028
1026
1024
1022
1020
1017
1014
1011
1007
1003
999
995
992
992
993
997
1003
1011
1018
1025
1031
1035
1037
1038
1038
1038
1038
1039
1040
1040
1039
1037
1033
1027
1020
1013
1005
999
994
991
989
989
991
994
998
1002
1006
1011
1017
1022
1028
1033
1038
1043
1048
1051
1054
1056
1058
1058
1057
1056
1054
1052
1048
1044
1038
1032
1025
1017
1010
1004
1000
998
999
1004
1010
1017
1024
1029
1032
1032
1030
1026
1021
1016
1010
1005
1001
998
997
997
999
1003
1007
1012
1016
1018
1017
1015
1011
1005
999
993
989
985
984
984
986
989
993
999
1005
1011
1016
1021
1026
1029
1030
1030
1028
1024
1019
1013
1006
1000
995
993
994
998
1004
1011
1019
1025
1030
1033
1033
1032
1030
1027
1025
1024
1022
1022
1021
1021
1019
1018
1016
1014
1012
1010
1010
1010
1010
1012
1013
1015
1017
1018
1020
1021
1022
1022
1023
1023
1022
1022
1020
1018
1016
1014
1011
1008
1006
1004
1004
1005
1008
1014
1024
1038
1056
1077
1102
1126
1150
1171
1187
1197
1201
1199
1190
1175
1155
1130
1104
1077
948
969
984
994
998
998
995
991
987
983
981
980
978
977
975
973
970
967
964
963
962
962
963
963
964
963
962
959
956
952
1050
1052
1052
1051
1048
1043
1039
1034
1029
1025
1022
1020
1018
1018
1017
1018
1018
1020
1021
1022
1024
1026
1027
1028
1028
1026
1024
1020
1015
1010
1004
999
995
991
1011
1012
1012
988
990
1005
1001
997
993
990
988
987
987
989
990
992
994
996
997
999
1000
1001
1003
1004
1005
1005
1004
1002
999
995
989
983
977
971
967
963
961
961
962
964
969
974
980
987
992
997
1001
1003
1004
1003
1003
1002
1001
1001
1000
999
997
994
989
984
978
973
969
967
967
971
976
982
989
996
1002
1007
1010
1011
1011
1009
1006
997
1002
1007
1012
1017
1021
1024
1026
1028
1029
1029
1028
971
973
974
975
976
977
977
977
977
976
1024
1025
1027
1029
1031
1033
1035
1036
1037
1037
1037
1035
1033
1029
1026
1022
1019
1017
1017
1018
1020
1022
1025
1028
1030
1031
1032
1031
1029
1027
1025
1023
1021
1020
1021
1023
1026
1031
1036
1041
1045
1047
1047
1044
1040
1035
1029
1023
1018
1015
1013
1013
1013
1014
1016
1018
1020
1022
1023
1024
1023
1022
1021
1019
1018
1017
1017
1017
1018
1019
1020
1021
1021
1021
1021
1020
1020
1019
1018
1018
1017
1016
1015
1014
1012
1011
1009
1008
1007
1006
1006
1006
1007
1008
1010
1012
1015
1018
1021
1023
1024
1025
1025
1024
1024
1024
1026
1029
1034
1040
1045
1050
1052
1052
1050
1046
1041
1035
1031
1027
1025
1025
1025
1026
1028
1028
1029
1029
1029
1029
1028
1028
1027
1026
1026
1025
1025
1024
1024
1022
1021
1020
1018
1016
1013
1012
1011
1012
1014
1018
1024
1030
1036
1041
1043
1043
1041
1039
1036
1034
1034
1036
1041
1046
1051
1054
1055
1054
1050
1044
1038
1033
1029
1028
1030
1032
1036
1039
1040
1040
1038
1035
1031
1027
1023
1020
1018
1017
1016
1016
1017
1018
1019
1020
1021
1022
1023
1023
1023
1023
1022
1022
1021
1021
1020
1020
1020
1021
1021
1022
1023
1024
1024
1025
1026
1026
1026
1026
1026
1025
1025
1024
1023
1022
1020
1018
1016
1013
1011
1008
1007
1006
1006
1007
1009
1011
1014
1017
1019
1020
1021
1021
1021
1021
1021
1021
1022
1022
1023
1024
1024
1025
1025
1025
1025
1026
1026
1026
1026
1026
1025
1023
1020
1016
1012
1008
1004
1002
1001
1002
1004
1008
1013
1019
1024
1029
1034
1037
1040
1041
1040
1038
1034
1029
1023
1017
1010
1003
997
992
989
987
987
990
996
1005
1017
1031
1048
1068
1090
1113
1136
1160
1182
1202
1218
1229
1233
1229
1215
1193
1163
1129
1093
941
971
997
1016
1030
1039
1044
1045
1044
1041
1037
1033
1028
1024
1020
1016
1013
1009
1004
999
992
985
978
972
967
964
964
964
967
971
976
981
985
989
991
991
989
985
979
972
964
956
949
945
943
944
947
952
957
963
968
972
976
979
981
982
982
981
980
977
975
972
970
967
964
962
961
959
958
958
958
958
959
959
960
960
961
961
961
961
961
961
961
962
964
968
973
978
983
987
990
990
988
983
978
974
970
970
972
978
985
992
1000
1006
1010
1013
1014
1014
1013
1012
1012
1011
1010
1008
1006
998
1003
1010
1016
1022
1028
1031
1032
1032
1030
1028
1025
1023
1021
1021
1021
1021
1021
1021
1022
1021
1021
1021
1021
1021
1022
1022
1023
1023
1023
1023
1022
1021
1019
1018
1017
1017
1017
1018
1019
1021
1023
1025
1028
1030
1032
1034
1036
1037
1037
1037
1036
1035
1033
1031
1028
1025
1023
1020
1018
1016
1014
1014
1014
1014
1016
1018
1020
1023
1026
1029
1032
1035
1036
1037
1037
1037
1035
1033
1030
1027
1024
1021
1019
1019
1019
1019
1021
1022
1024
1025
1027
1028
1029
1029
1029
1028
1028
1028
1028
1030
1032
1036
1040
1043
1046
1046
1044
1041
1035
1029
1022
1017
1013
1010
1010
1010
1012
1015
1018
1022
1026
1030
1034
1037
1040
1043
1044
1045
1043
1041
1036
1030
1025
1020
1017
1017
1019
1023
1029
1035
1041
1044
1044
1043
1040
1036
1034
1032
1032
1034
1037
1040
1043
1044
1044
1043
1040
1036
1031
1026
1021
1017
1014
1012
1011
1012
1014
1018
1022
1025
1029
1031
1033
1033
1033
1033
1034
1035
1037
1040
1042
1044
1046
1046
1045
1043
1041
1039
1036
1035
1034
1034
1034
1034
1034
1034
1034
1034
1034
1035
1037
1039
1042
1045
1047
1048
1047
1044
1040
1035
1028
1022
1017
1013
1010
1008
1008
1009
1010
1012
1015
1019
1023
1028
1033
1039
1044
1050
1055
1058
1061
1062
1061
1060
1058
1056
1055
1054
1055
1055
1056
1057
1057
1057
1056
1054
1051
1047
1042
1036
1029
1023
1017
1012
1008
1006
1006
1006
1009
1012
1016
1020
1025
1029
1032
1035
1036
1036
1035
1033
1030
1028
1025
1024
1022
1022
1022
1022
1023
1023
1022
1022
1021
1019
1018
1017
1015
1014
1014
1015
1017
1020
1024
1029
1033
1036
1038
1038
1036
1033
1029
1025
1021
1019
1019
1019
1021
1023
1025
1026
1027
1027
1026
1025
1023
1022
1020
1018
1017
1016
1015
1015
1016
1017
1018
1020
1021
1021
1021
1020
1019
1019
1018
1019
1020
1022
1023
1025
1026
1026
1026
1026
1025
1024
1024
1025
1026
1028
1030
1031
1031
1030
1027
1022
1017
1012
1007
1003
1000
999
1002
1008
1019
1034
1053
1075
1099
1123
1145
1163
1176
1184
1186
1182
1172
1155
1134
1108
1081
945
969
990
1006
1016
1022
1025
1024
1021
1016
1010
1004
997
990
982
976
969
964
959
955
951
949
948
948
948
950
952
956
959
1036
1034
1032
1031
1032
1034
1036
1039
1041
1042
1041
1040
1037
1034
1030
1026
1023
1019
1017
1015
1014
1014
1015
1017
1018
1019
1020
1019
1016
1012
1008
1003
1001
1005
1008
1010
1010
1010
1010
1009
1007
1006
1004
1002
1000
997
993
990
988
986
986
988
991
996
1002
1008
1012
1015
1016
1015
1012
990
994
998
1002
1004
1007
1009
1010
1012
1014
1017
1018
1020
1021
1020
1019
1017
1015
1013
1011
1011
1011
1012
1014
1015
1016
1016
1015
1013
1011
1009
1008
1008
1010
1013
1017
1021
1025
1029
1032
1033
1034
1032
1030
1026
1021
1015
1009
1004
1000
999
999
1001
1005
1009
1014
1018
1021
1024
1026
1027
1027
1027
1026
1025
1025
1024
1023
1022
1022
1021
1021
1020
1020
1018
1017
1015
1013
1011
1010
1009
1008
1009
1009
1010
1011
1011
1012
1012
1013
1014
1015
1016
1018
1020
1022
1023
1024
1025
1024
1024
1022
1021
1019
1017
1016
1015
1014
1013
1012
1012
1012
1012
1012
1012
1012
1012
1013
1013
1013
1013
1013
1012
1012
1012
1013
1013
1014
1016
1018
1021
1023
1025
1028
1029
1030
1031
1031
1030
1029
1028
1026
1024
1022
1020
1018
1017
1015
1014
1013
1013
1013
1013
1013
1014
1014
1015
1015
1016
1016
1017
1018
1020
1022
1026
1029
1033
1036
1039
1040
1039
1037
1034
1031
1027
1023
1020
1017
1015
1013
1012
1011
1010
1010
1011
1012
1015
1018
1021
1025
1028
1030
1030
1028
1025
1020
1015
1011
1008
1008
1009
1013
1019
1026
1032
1039
1044
1049
1051
1053
1052
1050
1046
1041
1036
1030
1025
1021
1018
1016
1016
1016
1018
1021
1024
1028
1032
1035
1038
1040
1042
1043
1044
1044
1046
1048
1050
1053
1055
1055
1054
1051
1047
1042
1037
1032
1029
1028
1028
1029
1031
1033
1034
1033
1031
1028
1025
1022
1019
1017
1017
1017
1018
1020
1021
1023
1024
1024
1025
1024
1024
1023
1021
1020
1019
1018
1018
1018
1019
1021
1022
1024
1026
1028
1029
1030
1030
1031
1030
1029
1028
1027
1026
1026
1027
1028
1030
1033
1035
1037
1039
1039
1039
1038
1037
1036
1036
1036
1038
1040
1042
1043
1044
1044
1043
1042
1040
1038
1036
1034
1033
1031
1030
1028
1026
1024
1021
1019
1017
1016
1016
1017
1018
1021
1022
1023
1023
1021
1018
1015
1011
1008
1006
1006
1008
1014
1023
1036
1054
1075
1099
1123
1147
1167
1182
1191
1192
1186
1174
1156
1134
1107
1079
949
976
999
1016
1027
1032
1031
1025
1015
1004
992
981
970
961
954
949
947
948
951
957
963
971
979
986
992
995
996
993
987
978
967
956
945
937
933
932
934
938
944
950
956
961
966
971
976
982
989
996
1004
1010
1014
1016
1015
1012
1006
999
991
983
977
972
968
966
964
964
964
965
965
966
967
969
970
970
971
970
970
968
966
964
962
960
961
963
968
975
983
993
1002
1011
1018
1024
1027
1028
1027
1024
1019
1014
1007
1001
996
992
991
991
992
994
996
997
996
994
992
990
989
990
993
998
1003
1008
1011
1011
1008
1001
991
981
971
963
958
956
956
958
962
965
969
972
974
976
978
979
981
982
983
984
984
984
982
980
978
975
973
972
1027
1027
1025
1024
1022
1021
1020
1019
1019
1019
1019
1019
1018
1018
1018
1017
1017
1018
1018
1019
1019
1019
1018
1017
1015
1013
1010
1008
1007
1007
1008
1011
1014
1017
1020
1022
1023
1023
1023
1023
